

   Time         sum(rTop)     sum(rRoot)    sum(vTop)     sum(vRoot)     sum(vBot)    hTop       hRoot      hBot      A-level
    [T]           [L]           [L]           [L]           [L]            [L]        [L]         [L]       [L] 

     1.00000  0.369000E+00  0.309034E+00  0.241890E-02  0.323934E-01 -0.832631E-06-100000.000 -50819.973 -43109.629       1
     2.00000  0.629200E+00  0.542225E+00  0.463564E-02  0.546970E-01 -0.162035E-05-100000.000 -51973.543 -43703.965       2
     3.00000  0.939600E+00  0.800196E+00  0.668999E-02  0.776526E-01 -0.238099E-05-100000.000 -53072.012 -44274.367       3
     4.00000  0.129740E+01  0.112785E+01  0.860158E-02  0.104771E+00 -0.311517E-05-100000.000 -54353.270 -44877.418       4
     5.00000  0.163060E+01  0.148930E+01  0.103392E-01  0.131810E+00 -0.381103E-05-100000.000 -55731.785 -45513.605       5
     6.00000  0.200550E+01  0.190032E+01  0.119447E-01  0.160075E+00 -0.448183E-05-100000.000 -57239.719 -46185.086       6
     7.00000  0.243140E+01  0.237460E+01  0.134202E-01  0.189952E+00 -0.512461E-05-100000.000 -58864.605 -46891.980       7
     8.00000  0.289050E+01  0.295584E+01  0.147661E-01  0.223283E+00 -0.573981E-05-100000.000 -60666.504 -47651.125       8
     9.00000  0.333840E+01  0.354862E+01  0.159768E-01  0.253856E+00 -0.632512E-05-100000.000 -62779.879 -48495.262       9
    10.00000  0.383400E+01  0.416716E+01  0.170655E-01  0.282847E+00 -0.688166E-05-100000.000 -64757.691 -49345.430      10
    11.00000  0.427240E+01  0.469910E+01  0.180402E-01  0.305541E+00 -0.741309E-05-100000.000 -66770.391 -50222.500      11
    12.00000  0.468980E+01  0.518750E+01  0.189256E-01  0.324939E+00 -0.791919E-05-100000.000 -68345.992 -51022.602      12
    13.00000  0.511520E+01  0.559814E+01  0.197339E-01  0.340232E+00 -0.840692E-05-100000.000 -69797.625 -51789.598      13
    14.00000  0.550120E+01  0.598641E+01  0.204820E-01  0.354000E+00 -0.888009E-05-100000.000 -70925.023 -52476.586      14
    15.00000  0.592910E+01  0.635928E+01  0.211757E-01  0.366626E+00 -0.933552E-05-100000.000 -72001.172 -53136.352      15
    16.00000  0.638610E+01  0.674807E+01  0.218213E-01  0.379260E+00 -0.977959E-05-100000.000 -72978.078 -53762.652      16
    17.00000  0.688070E+01  0.715570E+01  0.224198E-01  0.391962E+00 -0.102092E-04-100000.000 -73991.023 -54388.844      17
    18.00000  0.722210E+01  0.751618E+01  0.229728E-01  0.402736E+00 -0.106246E-04-100000.000 -75013.898 -55014.359      18
    19.00000  0.758200E+01  0.788013E+01  0.234891E-01  0.413240E+00 -0.110274E-04-100000.000 -75878.742 -55603.934      19
    20.00000  0.804210E+01  0.832807E+01  0.239694E-01  0.425720E+00 -0.114170E-04-100000.000 -76766.406 -56190.441      20
    21.00000  0.851530E+01  0.885221E+01  0.244079E-01  0.439722E+00 -0.117968E-04-100000.000 -77840.203 -56814.734      21
    22.00000  0.898140E+01  0.936568E+01  0.248012E-01  0.452814E+00 -0.121670E-04-100000.000 -79050.703 -57478.551      22
    23.00000  0.941270E+01  0.990004E+01  0.251550E-01  0.465863E+00 -0.125229E-04-100000.000 -80187.008 -58138.543      23
    24.00000  0.986800E+01  0.104719E+02  0.254699E-01  0.479223E+00 -0.128674E-04-100000.000 -81371.031 -58812.980      24
    25.00000  0.103552E+02  0.110465E+02  0.257459E-01  0.492056E+00 -0.131993E-04-100000.000 -82594.828 -59500.535      25
    26.00000  0.106227E+02  0.113615E+02  0.259863E-01  0.498794E+00 -0.135236E-04-100000.000 -83784.344 -60186.566      26
    27.00000  0.110297E+02  0.117386E+02  0.262173E-01  0.506701E+00 -0.138401E-04-100000.000 -84345.188 -60729.836      27
    28.00000  0.115115E+02  0.121460E+02  0.264272E-01  0.514997E+00 -0.141504E-04-100000.000 -85164.516 -61300.215      28
    29.00000  0.118810E+02  0.125720E+02  0.266178E-01  0.523442E+00 -0.144516E-04-100000.000 -85922.891 -61847.938      29
    30.00000  0.122999E+02  0.129331E+02  0.267871E-01  0.530399E+00 -0.147468E-04-100000.000 -86746.812 -62409.520      30
end
